Finding minimum of f(x,y) = (1-x)^2+100(y-x^2)^2
Expected result = [1.0, 1.0]
Calculated result = [0.9999997647652095, 0.9999995255165586]

Solving SE for Hydrogen atom
Analytical bound-state energies: -0.5/n^2 = [-0.5, -0.125, -0.05555555555555555]
Ground state energy = -0.5000000025315279 => n = 0.9999999974684721
First excited state energy = -0.12489106887078054 => n = 2.0008720190152594
Second excited state energy = -0.042934053761696914 => n = 3.4125895321642092

--------Bound state reduced wavefunctions--------


0.001 0.000999
0.0031188049286202148 0.003109089464395078
0.005174911888181232 0.00514819460567998
0.008047493860230482 0.00798298058132382
0.011667363119596312 0.011532010443973336
0.016078478220239976 0.015822005124004862
0.021306761762574206 0.020857555483066573
0.027375706184648695 0.02663640286970193
0.03430687447606855 0.033149823910018895
0.04212101608181515 0.040383622199691965
0.05083879700866284 0.048318741087187124
0.06048134314869109 0.05693168874716702
0.0710706637209888 0.06619483831297131
0.08262999997233525 0.07607664469610763
0.09518412846493347 0.08654180434044549
0.10875963889567938 0.09755137496045774
0.12338520074270451 0.10906286666363213
0.1390918294810248 0.12103031218616897
0.15591316110296966 0.1334043217024692
0.17388574237539042 0.14613212603494297
0.19304934376568444 0.159157611117408
0.21344730187264196 0.1724213458817228
0.23512689825845173 0.18586060515622488
0.2581397824356393 0.19940938907874967
0.28254244728935296 0.21299844014569663
0.3083967665959635 0.22655525911446367
0.33577060564646033 0.24000412093296197
0.3647385178980252 0.2532660920507653
0.3953825428152176 0.26625905069641037
0.4277931228127332 0.27889771208557207
0.46207016066706913 0.2910936611240498
0.4983242427015698 0.30275539590423495
0.5366780581267058 0.31378838646355484
0.577268050639212 0.3240951547347493
0.620246345532 0.3335753837681613
0.6657830037389271 0.3421260671676118
0.7140686640549508 0.3496417137039656
0.7653176457536649 0.35601462751744056
0.8197715965212978 0.3611352918645228
0.87770378420804 0.364892894566454
0.9394241456378148 0.36717604711224494
1.0052852207683836 0.3678737675572811
1.0756891164674738 0.3668768206659472
1.151095664034206 0.36407953697143347
1.2320319681681358 0.3593822631347311
1.3191036214326441 0.3526946217436886
1.4130080490240529 0.3439397619507551
1.5145509233944392 0.3330597269643437
1.624667724670832 0.3200218833157241
1.7444551399654211 0.30482593715012307
1.8752228562946789 0.28751023147529964
2.018589393237417 0.26815451291540515
2.1766761542866497 0.246873650308082
2.352533964900184 0.22379106823074907
2.5477244076132792 0.19938347832735667
2.7514581883916325 0.1756382846544086
2.9714496082380415 0.15222415943533188
3.218503476756735 0.12878790166033888
3.484582042801912 0.10686003660882469
3.7508696160355433 0.08813519218245822
4.004156970917374 0.07303435048702747
4.253091114068272 0.06047975581660398
4.5019187493569985 0.04991585517276104
4.753097954016118 0.040995092936425476
5.008420030367606 0.0334634625249913
5.269383808666185 0.027120321196211914
5.537366836239154 0.021799911928552056
5.8131105026705 0.017370250414116377
6.097341487423222 0.013711914813500321
6.391762114230042 0.010708114888177746
6.698092181690691 0.008260498626043616
7.018204670268335 0.006284322460365559
7.354193161500359 0.004705982292898663
7.70845203029627 0.0034612371654479473
8.083772746865042 0.0024939168146213614
8.483466238999979 0.0017549470153446708
8.911524259964906 0.001201591068920448
9.372838685771097 0.0007968411012577794
9.873507799457718 0.000508914712011074
10.42127620088873 0.00031082717031910676
11.026187019629294 0.00018002179772296916
11.701588844135566 0.00009805934568756206
12.465787691561378 0.00005041557026160522
13.345079585198743 0.000026619515867288537
14 0.000021271535899586023


0.001 0.000999
0.0031734031809879134 0.0031633418521040315
0.005284267371855096 0.005256393974761346
0.008255114491281823 0.008187169640773866
0.012006894614920209 0.011863363780140085
0.016586614547471366 0.016313185851532488
0.0220199218686316 0.02153900527623439
0.028329271733540076 0.02753516532915106
0.03553426963374743 0.03428823929818754
0.04365286290701771 0.04177813438540195
0.05270208993424128 0.049978773855097226
0.06269861973664384 0.05885858148207347
0.07365915237821627 0.0683808349229641
0.08560072839294293 0.07850393327419476
0.0985409780325157 0.08918160734624384
0.11249833070373544 0.10036309119183119
0.12749219857945748 0.11199326729489444
0.14354314429905868 0.12401279389985566
0.1606730400272189 0.13635822037868983
0.1789052234981802 0.14896209487325784
0.1982646555810363 0.16175306729236305
0.21877808323192816 0.17465598995344492
0.240474211391701 0.1875920176502205
0.2633838871363004 0.20047870847189495
0.2875402995026099 0.21323012648128506
0.3129791986046405 0.22575694715304562
0.33973913788825083 0.2379665662679268
0.367861743949246 0.24976321289593975
0.3973920189588406 0.2610480669824727
0.42837868154714687 0.2717193819490416
0.46087455309873926 0.281672612647419
0.4949369978057854 0.2908005489120951
0.5306284264482847 0.2989934548020169
0.568016876229524 0.30613921351358775
0.6071766816145554 0.31212347768026216
0.648189254960295 0.31682982453148173
0.6911440001932476 0.3201399149207742
0.7361393891909203 0.32193365468776297
0.783284238549283 0.32208935594942745
0.8326992353832093 0.3204838947182385
0.8845187758436811 0.31699285948267264
0.9388932003256122 0.31149068279400777
0.9959915382594327 0.3038507440537643
1.0560049161481604 0.2939454258852672
1.1191508419030354 0.28164609757159736
1.1856786666157102 0.2668229851353052
1.2558766588355714 0.2493448654313049
1.330081335626667 0.22907848530379069
1.4086900322014688 0.20588754562338168
1.492178256374489 0.17963098322534324
1.5811243590144768 0.15016008980622986
1.6762458589041724 0.11731363705045962
1.7784552827170872 0.08090942967462919
1.888529503240159 0.040883320321869726
2.004516284869302 -0.0017239536061011303
2.127240757752696 -0.046784750852917265
2.257652685214223 -0.09413238722670557
2.3969926659810685 -0.14359362267342332
2.5469390240737515 -0.1949967835410409
2.709882268341996 -0.2481916997568089
2.8894890430478144 -0.30309763760067227
3.092073271960278 -0.35983764253024997
3.3187078499119695 -0.4163753748046165
3.5407757718549044 -0.4644735667166609
3.764098328626019 -0.5055798640480361
3.9926152195094455 -0.5403063869230788
4.228851183096952 -0.568770128705203
4.474867477934523 -0.5908968888459901
4.732603017552085 -0.6065299546499504
5.002166312370828 -0.6154452594783878
5.280878285746644 -0.6176170454957398
5.572266106305402 -0.6132846645340722
5.8804555783149794 -0.6025332736528463
6.2107822321236466 -0.5852893469687117
6.571074493198751 -0.5612479657046411
6.972942247326379 -0.529780329865582
7.408540339496587 -0.4921102285395292
7.883676404724418 -0.44888721785096025
8.405028247055434 -0.40101223540557
8.982605380806358 -0.349478497591862
9.538839953326384 -0.30277377942401373
10.114188130181864 -0.2583861508443378
10.734842405758103 -0.21546587433859277
11.44963086750341 -0.17252094892308636
12.251413940124332 -0.1321662084731486
12.940337645541636 -0.10339352196749717
13.597331175221917 -0.0803158938185777
14 -0.06797556363802033


0.001 0.000999
0.003186057210576947 0.003175914862900674
0.005309636225134659 0.005281491148172205
0.008303615860836382 0.008234856633501406
0.012086478538027771 0.011940996195260215
0.016705961578944665 0.016428471736160407
0.022187578483315394 0.021699049293504892
0.028553447226580757 0.027746169414176805
0.03582258924945976 0.03455517019606983
0.04401214170298906 0.04210442499009243
0.05313811346810928 0.05036604857964781
0.06321592669257256 0.05930640463270963
0.07426081509843001 0.06888648191918556
0.08628812815513173 0.07906218547959952
0.0993135723422893 0.08978457180303763
0.11335341015513156 0.10100004696514349
0.1284246309335694 0.1126505403984254
0.14454510341539545 0.12467366296601382
0.16173371719482982 0.13700285539409
0.18001051858514833 0.14956753145099735
0.19939684515689327 0.16229321903472932
0.2199154626018016 0.17510170161197558
0.2415907070669008 0.1879111618480224
0.2644486359396698 0.2006363289179685
0.28851718997251435 0.21318863068848698
0.31382636977274825 0.22547635179071984
0.34040842989323716 0.23740479844975845
0.3682980941101514 0.24887647082639258
0.3975327959690779 0.25979124354265654
0.4281529493749757 0.27004655500446617
0.46020225487885624 0.2795376060655135
0.4937280483054771 0.28815756846431356
0.5287816999808003 0.2957978034391251
0.5654190744682732 0.30234809073929814
0.6037010631198996 0.3076968681009857
0.643694204862959 0.31173148101185955
0.685471414534055 0.3143384422014873
0.7291128434391979 0.31540369977363214
0.774706903801381 0.31481291210210216
0.8223514984040775 0.31245172646108504
0.8721555098349638 0.30820605663512785
0.924240622092408 0.30196235217510115
0.9787435732469234 0.2936078480642444
1.0358189755391038 0.28303077753815437
1.0956428945495316 0.27012052143511667
1.1584174629115966 0.2547676524885047
1.2243769336692008 0.2368638086372426
1.2937957857847033 0.21630128864566026
1.3669998370563312 0.1929721928996707
1.444381909551024 0.1667668059593215
1.5264246564625892 0.13757068062684114
1.6137351878105672 0.1052594147617538
1.7071002728732172 0.069689121710703
1.8050087683693825 0.031682423174382156
1.9069336889088846 -0.00821145635198992
2.013254622106412 -0.04973671395558265
2.124407063908085 -0.09260180870147579
2.2409248190633786 -0.13648362811825518
2.363475126341373 -0.1810233092649045
2.4929139876845015 -0.22582072614610535
2.630377019358213 -0.27042666322082864
2.7774395591521053 -0.3143313053453164
2.936426749194922 -0.35694654186136476
3.1027869633506167 -0.39579490208201207
3.2671962894091315 -0.4281854317493787
3.431658333305009 -0.45450057292218543
3.5976390476104303 -0.4748721227924894
3.7661603159323698 -0.4892710140738957
3.9380374178759014 -0.4975917782621246
4.113990559163389 -0.4996912446930906
4.294706394766804 -0.4954088762621807
4.480878859799821 -0.4845787763795014
4.673241740748749 -0.46703742111421437
4.8725996559189655 -0.44262893366932954
5.078306171604253 -0.4114657927364831
5.285530735690592 -0.3746530639685141
5.495120627327674 -0.33263504498205404
5.707923850143064 -0.28581761808058354
5.924720536645534 -0.23460313682916809
6.146272293835793 -0.17940035358794607
6.373361075135415 -0.12063131732477636
6.60682373449188 -0.05873694935356145
6.847587978175273 0.005817920374036533
7.096714917983342 0.0725394967813526
7.355454615629637 0.1408994452443805
7.625324291103402 0.2103282492877761
7.908225879564862 0.28020677662287424
8.20663465027379 0.34985497923397807
8.52392520709243 0.4185160017405091
8.864990318642604 0.48533278585704365
9.23757708211589 0.5493122706070193
9.655793635499633 0.6092710029431765
10.112874643300941 0.6600535156735448
10.572824878741747 0.6956134043666012
11.04106476837389 0.7162316393434167
11.522321755819068 0.7218639502154732
12.00174869262877 0.7129086819570779
12.469476682697275 0.6914144991482801
12.9352184457681 0.6588125491504512
13.405576417996958 0.61592070178882
13.885302390592356 0.5632923665673838
14 0.5495390753194749
