Finding minimum of f(x,y) = (1-x)^2+100(y-x^2)^2
Expected result = [1.0, 1.0]
Calculated result = [0.9999999999920354, 0.9999999999833682]

Now solving SE for Hydrogen atom
Ground state energy = -0.49996709892152996


Ground state f-function
0.001 0.000999
0.011 0.010879648033440352
0.031 0.0300537013376447
0.07100000000000001 0.06613371960220868
0.13791932804379947 0.1201509868143129
0.23541872333207653 0.18603739661869537
0.37000391432278945 0.25557398497112915
0.5502137867047738 0.31737920131971525
0.7890591628563955 0.3584496827557568
1.1074952857332472 0.36590314861992496
1.5411301604317533 0.33001841921018893
2.151845235879105 0.25019323565417867
3.035816877903311 0.14580919476846976
4.195548044719068 0.06307817716630289
5.597226732268278 0.02032470311388876
7.049868167015401 0.004862546841432968
8 0.0000026420316952506647
